cumulated moisture contents + flows
          time (s)             material     3       flow to boundary     1   flow to boundary     2  flow from boundary     1 flow from boundary     2
    0.000000000000000E+00    0.944561315586047E-01    0.000000000000000E+00    0.000000000000000E+00    0.000000000000000E+00    0.000000000000000E+00
    0.360000000000000E+04    0.943317642719424E-01   -0.128193256491217E-03    0.331920405450015E-05   -0.127667600653332E-03    0.331920405398080E-05
    0.720000000000000E+04    0.945654494543544E-01    0.228405191064707E-03    0.497954410503005E-05    0.228780663019892E-03    0.497954409671075E-05
    0.108000000000000E+05    0.952226090751099E-01    0.642744074276167E-03    0.132481106330758E-04    0.644077799175145E-03    0.132481106902075E-04
    0.144000000000000E+05    0.961121570823403E-01    0.865509436358931E-03    0.240163177107763E-04    0.865430391776247E-03    0.240163177146461E-04
    0.180000000000000E+05    0.968630584300353E-01    0.713956874269594E-03    0.369147297516404E-04    0.713941869352996E-03    0.369147297555118E-04
    0.216000000000000E+05    0.979419919502893E-01    0.102802109222725E-02    0.508080174793041E-04    0.102798445025786E-02    0.508080174876029E-04
    0.252000000000000E+05    0.989491222441405E-01    0.942522059594895E-03    0.647802026862364E-04    0.942427640012685E-03    0.647802026742940E-04
    0.288000000000000E+05    0.999516380602757E-01    0.924207632894654E-03    0.782019229296382E-04    0.924215867277750E-03    0.782019229396676E-04
    0.324000000000000E+05    0.101772966733144E+00    0.173078683440109E-02    0.907117651250003E-04    0.173074526363925E-02    0.907117651835940E-04
    0.360000000000000E+05    0.103439056928046E+00    0.156393465622773E-02    0.102139984396583E-03    0.156412576161252E-02    0.102139984396854E-03
    0.396000000000000E+05    0.105350612933523E+00    0.179915911215468E-02    0.112420451037663E-03    0.179926106521821E-02    0.112420451038071E-03
    0.432000000000000E+05    0.106585972044710E+00    0.111390794000448E-02    0.121515599312393E-03    0.111400992831650E-02    0.121515599313257E-03
    0.468000000000000E+05    0.106791115863478E+00    0.757640211050470E-04    0.129412209796221E-03    0.758584601324959E-04    0.129412209775039E-03
    0.504000000000000E+05    0.106820109069683E+00   -0.107599137947344E-03    0.136134793744788E-03   -0.106687449010113E-03    0.136134790414795E-03
    0.540000000000000E+05    0.106895636909569E+00   -0.663702343326678E-04    0.141770160895288E-03   -0.660585947931664E-04    0.141770156439591E-03
    0.576000000000000E+05    0.107262988263027E+00    0.220228528241591E-03    0.146467602414162E-03    0.221261283386841E-03    0.146467612017184E-03
    0.612000000000000E+05    0.107850506031038E+00    0.437078347565531E-03    0.150426803890954E-03    0.437021092373794E-03    0.150426803900939E-03
    0.648000000000000E+05    0.109013132460092E+00    0.100870753668328E-02    0.153873859251556E-03    0.100839546380024E-02    0.153873859261162E-03
    0.684000000000000E+05    0.109880175523916E+00    0.709999776832789E-03    0.157019408374585E-03    0.709828446996786E-03    0.157019408379351E-03
    0.720000000000000E+05    0.110182769631308E+00    0.142568796742112E-03    0.160032945787150E-03    0.142488347854492E-03    0.160032945790255E-03
    0.756000000000000E+05    0.109965168924733E+00   -0.380626773550153E-03    0.163004914803705E-03   -0.380770432789243E-03    0.163004917997482E-03
    0.792000000000000E+05    0.110059956281038E+00   -0.718793918093858E-04    0.165960424508515E-03   -0.711573139640276E-04    0.165960434615232E-03
    0.828000000000000E+05    0.110527595211276E+00    0.298909024889111E-03    0.168863044202228E-03    0.298483502784863E-03    0.168863039837303E-03
    0.864000000000000E+05    0.111252526273685E+00    0.553434723078374E-03    0.171633954175564E-03    0.552841009780637E-03    0.171633950560234E-03
    0.900000000000000E+05    0.112023881748445E+00    0.597380140320288E-03    0.174185311663916E-03    0.596634048733577E-03    0.174185307714432E-03
    0.936000000000000E+05    0.112259794013879E+00    0.597223001450096E-04    0.176458493084196E-03    0.594058908006445E-04    0.176458484699258E-03
    0.972000000000000E+05    0.112117982857829E+00   -0.320388993782644E-03    0.178438570678573E-03   -0.319854054603570E-03    0.178436146679404E-03
    0.100800000000000E+06    0.112091222463411E+00   -0.206953877016663E-03    0.180147441550845E-03   -0.207152642335117E-03    0.180147455383108E-03
    0.104400000000000E+06    0.112712435682345E+00    0.439200081186423E-03    0.181623728406527E-03    0.439938507195994E-03    0.181621776256278E-03
    0.108000000000000E+06    0.114354388827395E+00    0.145914124773320E-02    0.182904221112438E-03    0.145916778875336E-02    0.182904221477669E-03
    0.111600000000000E+06    0.117653718676094E+00    0.311510259996203E-02    0.184018528575467E-03    0.311534661494736E-02    0.184018528575348E-03
    0.115200000000000E+06    0.123644366544966E+00    0.580582297847190E-02    0.184995009265720E-03    0.580504669030466E-02    0.184995009265714E-03
    0.118800000000000E+06    0.125307300078696E+00    0.147722149085663E-02    0.185865830486422E-03    0.147723948040829E-02    0.185865830484003E-03
    0.122400000000000E+06    0.125434478903795E+00   -0.595253071952770E-04    0.186651368925805E-03   -0.595068565815341E-04    0.186651369226369E-03
    0.126000000000000E+06    0.124815464822533E+00   -0.807180117646895E-03    0.187340014877862E-03   -0.804347442943522E-03    0.187340009529033E-03
    0.129600000000000E+06    0.124100440115214E+00   -0.903773813372436E-03    0.187890490249843E-03   -0.901357733380734E-03    0.187890484962612E-03
    0.133200000000000E+06    0.123787408213320E+00   -0.502087417607333E-03    0.188256680935351E-03   -0.500042357674767E-03    0.188256671870345E-03
    0.136800000000000E+06    0.124245213670522E+00    0.269451253050823E-03    0.188415721316868E-03    0.269216906186370E-03    0.188415717963445E-03
    0.140400000000000E+06    0.125294527013761E+00    0.860908101040768E-03    0.188381982443060E-03    0.860830524897824E-03    0.188381988849622E-03
    0.144000000000000E+06    0.127092493010349E+00    0.160975156246644E-02    0.188205200548800E-03    0.160903909348837E-02    0.188205200365150E-03
    0.147600000000000E+06    0.129222951197269E+00    0.194225329538353E-02    0.187955587074491E-03    0.194235380883646E-02    0.187955589284887E-03
    0.151200000000000E+06    0.131590595448567E+00    0.217974571178658E-02    0.187692523084677E-03    0.217966263271104E-02    0.187692530034763E-03
    0.154800000000000E+06    0.133128148555642E+00    0.135009580025047E-02    0.187449480357425E-03    0.134985201320724E-02    0.187449480177524E-03
    0.158400000000000E+06    0.133594765660512E+00    0.278756700808853E-03    0.187238792950759E-03    0.279455360985061E-03    0.187238800776629E-03
    0.162000000000000E+06    0.133788944445836E+00    0.668967182771347E-05    0.187063738544676E-03    0.706726100733365E-05    0.187063748612195E-03
    0.165600000000000E+06    0.133550865942332E+00   -0.424968698514645E-03    0.186922987711296E-03   -0.425321126161012E-03    0.186922994235868E-03
    0.169200000000000E+06    0.134102257764616E+00    0.363616328181931E-03    0.186819068506913E-03    0.365582973992564E-03    0.186819083835142E-03
    0.172800000000000E+06    0.134275126636543E+00   -0.140696020503959E-04    0.186766875417695E-03   -0.138494173446732E-04    0.186766878925156E-03
    0.176400000000000E+06    0.135146220504460E+00    0.683947287530736E-03    0.186787304303938E-03    0.684679050529357E-03    0.186787307073382E-03
    0.180000000000000E+06    0.135695636380375E+00    0.362265849059608E-03    0.186900003939100E-03    0.362719711998353E-03    0.186900006580459E-03
    0.183600000000000E+06    0.136923032396621E+00    0.103944819446531E-02    0.187109451171593E-03    0.104105819549907E-02    0.187109458543458E-03
    0.187200000000000E+06    0.137824938601139E+00    0.713384583494871E-03    0.187399667084555E-03    0.715811312229034E-03    0.187399598412085E-03
    0.190800000000000E+06    0.138474345322688E+00    0.462403295901970E-03    0.187740125933525E-03    0.461113299557819E-03    0.187739958772239E-03
    0.194400000000000E+06    0.138011158297867E+00   -0.651448770742442E-03    0.188095483103522E-03   -0.650653628150616E-03    0.188095482610867E-03
    0.198000000000000E+06    0.137443637774497E+00   -0.756308285473306E-03    0.188436636283169E-03   -0.755220118858909E-03    0.188436425977381E-03
    0.201600000000000E+06    0.137074114577113E+00   -0.558023828998986E-03    0.188746417655612E-03   -0.558858805056623E-03    0.188746254693918E-03
    0.205200000000000E+06    0.136858815680045E+00   -0.404576019975315E-03    0.189012854453309E-03   -0.403880469078022E-03    0.189012853025245E-03
    0.208800000000000E+06    0.136400268612144E+00   -0.648143768740612E-03    0.189197644980354E-03   -0.647198122977769E-03    0.189197641144916E-03
    0.212400000000000E+06    0.135918413988021E+00   -0.671437686224209E-03    0.189247964673644E-03   -0.670561698973999E-03    0.189247959219210E-03
    0.216000000000000E+06    0.135224198683868E+00   -0.883264201196838E-03    0.189101862906202E-03   -0.883235769757011E-03    0.189101863017797E-03
    0.219600000000000E+06    0.134445522912798E+00   -0.967320546499862E-03    0.188681370185068E-03   -0.967282209855799E-03    0.188681370266005E-03
    0.223200000000000E+06    0.133573813207301E+00   -0.105956532191354E-02    0.187888869967286E-03   -0.105951601539366E-02    0.187888870072037E-03
    0.226800000000000E+06    0.132978457719296E+00   -0.782282180995901E-03    0.186662338051103E-03   -0.781858542364137E-03    0.186662334069216E-03
    0.230400000000000E+06    0.132551475994983E+00   -0.611709557022433E-03    0.185028725726228E-03   -0.612200043244248E-03    0.185030792901272E-03
    0.234000000000000E+06    0.132384867841062E+00   -0.349946851058814E-03    0.183140365459615E-03   -0.349882825490276E-03    0.183140377156889E-03
    0.237600000000000E+06    0.132303936869462E+00   -0.262672135932853E-03    0.181224033064914E-03   -0.262199645743504E-03    0.181224041307813E-03
    0.241200000000000E+06    0.132473853105090E+00   -0.977836830061688E-05    0.179502442553320E-03   -0.954992219939305E-05    0.179502446874851E-03
    0.244800000000000E+06    0.132884071247763E+00    0.231568658767799E-03    0.178122657319822E-03    0.232424495163985E-03    0.178122667968831E-03
    0.248400000000000E+06    0.133424592449187E+00    0.363225017536667E-03    0.177124196441790E-03    0.363629555692340E-03    0.177124198990116E-03
    0.252000000000000E+06    0.133986511690389E+00    0.385685289277527E-03    0.176459683259566E-03    0.385135060395495E-03    0.176459674881014E-03
    0.255600000000000E+06    0.134330777256483E+00    0.168011869084678E-03    0.176054419837488E-03    0.168331618524874E-03    0.176054424413840E-03
    0.259200000000000E+06    0.134523333858926E+00    0.165599393571290E-04    0.175860994821653E-03    0.167391814479764E-04    0.175860999551085E-03
    0.262800000000000E+06    0.134638935445557E+00   -0.604834561431803E-04    0.175861332783357E-03   -0.602553627476460E-04    0.175861340617607E-03
    0.266400000000000E+06    0.134958000015225E+00    0.142823337178284E-03    0.176045207035698E-03    0.143146583901010E-03    0.176045212419662E-03
    0.270000000000000E+06    0.135841925750116E+00    0.707504581552464E-03    0.176391178097774E-03    0.707497515331830E-03    0.176391178043822E-03
    0.273600000000000E+06    0.137040893537965E+00    0.102220958907867E-02    0.176857613993719E-03    0.102219862029802E-02    0.176857614087375E-03
    0.277200000000000E+06    0.139347776417529E+00    0.212944189682106E-02    0.177394926411656E-03    0.212956901691986E-02    0.177394926410797E-03
    0.280800000000000E+06    0.142095382017954E+00    0.256949981909159E-02    0.177956882504553E-03    0.257008616243263E-02    0.177956882507233E-03
    0.284400000000000E+06    0.144694056961789E+00    0.242011952992070E-02    0.178514095011448E-03    0.241906173664788E-02    0.178514095049057E-03
    0.288000000000000E+06    0.145946156419282E+00    0.107307187974374E-02    0.179061611822607E-03    0.107292720842894E-02    0.179061611793506E-03
    0.291600000000000E+06    0.145705115537161E+00   -0.420647663528480E-03    0.179607092867089E-03   -0.420606329149707E-03    0.179607092885969E-03
    0.295200000000000E+06    0.144722871197401E+00   -0.116235626339699E-02    0.180126786469691E-03   -0.116226108874584E-02    0.180126786508006E-03
    0.298800000000000E+06    0.143757176891655E+00   -0.114616920210444E-02    0.180538437706169E-03   -0.114580536471292E-02    0.180538437804721E-03
    0.302400000000000E+06    0.143085651453460E+00   -0.853208816875145E-03    0.180712589258506E-03   -0.851301719266069E-03    0.180712584889082E-03
    0.306000000000000E+06    0.142918888755764E+00   -0.347297616477015E-03    0.180529937983982E-03   -0.347198689264254E-03    0.180529938056562E-03
    0.309600000000000E+06    0.142887695278669E+00   -0.211794428530473E-03    0.179920815624966E-03   -0.210721804446811E-03    0.179920809020627E-03
    0.313200000000000E+06    0.142687796548666E+00   -0.378753354172449E-03    0.178839836021156E-03   -0.378638532350745E-03    0.178839836087420E-03
    0.316800000000000E+06    0.143281170198700E+00    0.415301761184297E-03    0.177348543327617E-03    0.416457778391412E-03    0.177348549952407E-03
    0.320400000000000E+06    0.144545532825741E+00    0.108881730207802E-02    0.175674355923194E-03    0.108821294432345E-02    0.175674355846036E-03
    0.324000000000000E+06    0.145757798274587E+00    0.103727181934220E-02    0.174118089929874E-03    0.103859317337547E-02    0.174118093467706E-03
    0.327600000000000E+06    0.146900104925357E+00    0.969401371901321E-03    0.172931615743007E-03    0.969160655930145E-03    0.172931615708688E-03
    0.331200000000000E+06    0.148480402325649E+00    0.140803506022625E-02    0.172234438901490E-03    0.140775876693408E-02    0.172234438862880E-03
    0.334800000000000E+06    0.150853896980698E+00    0.220160011854469E-02    0.172000095580008E-03    0.220200600110717E-02    0.172000095609723E-03
    0.338400000000000E+06    0.153653974523321E+00    0.262785622623071E-02    0.172103894739387E-03    0.262834998603572E-02    0.172103894743482E-03
    0.342000000000000E+06    0.156414435445404E+00    0.258811056474500E-02    0.172410954549925E-03    0.258723594369397E-02    0.172410954472337E-03
    0.345600000000000E+06    0.162828457966495E+00    0.624116196520107E-02    0.172832510348304E-03    0.624024194553719E-02    0.172832510348304E-03
    0.349200000000000E+06    0.169361706046007E+00    0.635986126109080E-02    0.173335394659797E-03    0.635875782026714E-02    0.173335394659796E-03
    0.352800000000000E+06    0.177427509057485E+00    0.789173418893980E-02    0.173919729061905E-03    0.788999445991944E-02    0.173919729061967E-03
    0.356400000000000E+06    0.183855631576917E+00    0.625404974913413E-02    0.174590437890306E-03    0.625528691612977E-02    0.174590437933155E-03
    0.360000000000000E+06    0.192056896274190E+00    0.802602437436001E-02    0.175333626646154E-03    0.802616630110656E-02    0.175333626646135E-03
    0.363600000000000E+06    0.201942422764186E+00    0.970948393866301E-02    0.176106534014828E-03    0.971008550409620E-02    0.176106534014830E-03
    0.367200000000000E+06    0.213458210105287E+00    0.113387871628352E-01    0.176837386759461E-03    0.113367088286577E-01    0.176837386759461E-03
    0.370800000000000E+06    0.228145780920889E+00    0.145098180883254E-01    0.177445227632595E-03    0.145066042211385E-01    0.177445227632616E-03
    0.374400000000000E+06    0.244093633167978E+00    0.157698822032979E-01    0.177861146949206E-03    0.157701926061881E-01    0.177861146949208E-03
    0.378000000000000E+06    0.260058221807158E+00    0.157865667262478E-01    0.178039968831853E-03    0.157875746752291E-01    0.178039968831853E-03
    0.381600000000000E+06    0.273724093057125E+00    0.134879295512649E-01    0.177947232589242E-03    0.134885437399062E-01    0.177947232589238E-03
    0.385200000000000E+06    0.274199440286089E+00    0.297761872414103E-03    0.177563400488678E-03    0.297778347246766E-03    0.177563400488597E-03
    0.388800000000000E+06    0.269841629707500E+00   -0.453469552960790E-02    0.176875520031991E-03   -0.453444740405375E-02    0.176875520035921E-03
    0.392400000000000E+06    0.259450899819812E+00   -0.105690439558972E-01    0.175871221688131E-03   -0.105048874460286E-01    0.175871221725656E-03
    0.396000000000000E+06    0.249550858693327E+00   -0.100735332793237E-01    0.174558318988761E-03   -0.100750405824307E-01    0.174558318993059E-03
    0.399600000000000E+06    0.243649050828325E+00   -0.607571310454627E-02    0.172989879522588E-03   -0.607566484505720E-02    0.172989879529113E-03
    0.403200000000000E+06    0.239893763754978E+00   -0.392680283895445E-02    0.171254617411899E-03   -0.392631580890872E-02    0.171254617411075E-03
    0.406800000000000E+06    0.237604032325383E+00   -0.245949922128278E-02    0.169454963748976E-03   -0.245942516171631E-02    0.169454963718461E-03
    0.410400000000000E+06    0.236506187077416E+00   -0.126472989201906E-02    0.167686315415295E-03   -0.126723258720540E-02    0.167686318078380E-03
    0.414000000000000E+06    0.235252012513738E+00   -0.142007463869304E-02    0.166004202272704E-03   -0.141923110532070E-02    0.166004201657829E-03
    0.417600000000000E+06    0.233809359082431E+00   -0.160693938103756E-02    0.164422528599496E-03   -0.160650858147708E-02    0.164422528020521E-03
    0.421200000000000E+06    0.232039116711269E+00   -0.193289465638196E-02    0.162930616901456E-03   -0.193238298628567E-02    0.162930616384908E-03
    0.424800000000000E+06    0.231076565891167E+00   -0.112391884665832E-02    0.161508824120158E-03   -0.112353170949396E-02    0.161508823652062E-03
    0.428400000000000E+06    0.231046651005123E+00   -0.189643787417497E-03    0.160148605874284E-03   -0.190348869942786E-03    0.160148610684152E-03
    0.432000000000000E+06    0.229910695652209E+00   -0.129479313578969E-02    0.158830912347403E-03   -0.129409938325046E-02    0.158830912366104E-03
    0.435600000000000E+06    0.228966939188327E+00   -0.110121305923395E-02    0.157534923680134E-03   -0.110111107361556E-02    0.157534923288952E-03
    0.439200000000000E+06    0.228227381984974E+00   -0.895929098810539E-03    0.156260121365281E-03   -0.895866479497688E-03    0.156260120933077E-03
    0.442800000000000E+06    0.227213381864320E+00   -0.116955227474808E-02    0.155019893652337E-03   -0.116799817570333E-02    0.155021223242245E-03
    0.446400000000000E+06    0.226211257178521E+00   -0.115616969078219E-02    0.153830490929850E-03   -0.115613692087691E-02    0.153830488645336E-03
    0.450000000000000E+06    0.225489559210194E+00   -0.873734068371601E-03    0.152710796477012E-03   -0.875500122822149E-03    0.152710800074860E-03
    0.453600000000000E+06    0.224608317946386E+00   -0.103276356609783E-02    0.151659824336083E-03   -0.103236397939909E-02    0.151659824368203E-03
    0.457200000000000E+06    0.224162143195238E+00   -0.597953828232282E-03    0.150662235844015E-03   -0.595446768308307E-03    0.150662229420881E-03
    0.460800000000000E+06    0.223409250578026E+00   -0.902516010347250E-03    0.149694651758455E-03   -0.902365549189102E-03    0.149694651778203E-03
    0.464400000000000E+06    0.222535556995714E+00   -0.102234700188171E-02    0.148725392796297E-03   -0.102214974667694E-02    0.148725392809177E-03
