cumulated moisture contents + flows
          time (s)             material     1           material     2       flow to boundary     1   flow to boundary     2  flow from boundary     1 flow from boundary     2
    0.000000000000000E+00    0.145956706117625E+02    0.475111351345011E-02    0.000000000000000E+00    0.000000000000000E+00    0.000000000000000E+00    0.000000000000000E+00
    0.360000000000000E+04    0.145003631450803E+02    0.766578074042861E-02   -0.891084255772752E-01    0.414167197264863E-05   -0.891158046771880E-01    0.414165130797987E-05
    0.720000000000000E+04    0.144577590244223E+02    0.872113884374103E-02   -0.478550615284421E-01    0.968497559555549E-05   -0.478555555490431E-01    0.968529347083070E-05
    0.108000000000000E+05    0.144228441477853E+02    0.941042400361515E-02   -0.330726167764199E-01    0.259093625165551E-04   -0.330727589867068E-01    0.259101533793540E-04
    0.144000000000000E+05    0.143932778791301E+02    0.994575671930287E-02   -0.243973157285400E-01    0.364743961791343E-04   -0.244150551942290E-01    0.364743961790885E-04
    0.180000000000000E+05    0.143780451308099E+02    0.103533420414194E-01   -0.149366812403797E-01    0.487908527898936E-04   -0.149223244243955E-01    0.487908527899392E-04
    0.216000000000000E+05    0.143710305617282E+02    0.106690729162284E-01   -0.713910430235347E-02    0.620055494760516E-04   -0.712953617898830E-02    0.620055494760006E-04
    0.252000000000000E+05    0.143673500007057E+02    0.109363790226207E-01   -0.382551086576490E-02    0.694944067484653E-04   -0.382484865964388E-02    0.696266225506551E-04
    0.288000000000000E+05    0.143665034916283E+02    0.111689678960634E-01   -0.908120917842847E-03    0.772303083853333E-04   -0.911421662788458E-03    0.773012616702532E-04
    0.324000000000000E+05    0.143687340054962E+02    0.113770410044915E-01    0.216834620645440E-02    0.856838679362139E-04    0.216271446228951E-02    0.857337398759677E-04
    0.360000000000000E+05    0.143728635528475E+02    0.115658114042241E-01    0.409118820046278E-02    0.926806689944931E-04    0.408605353095759E-02    0.927170963144488E-04
    0.396000000000000E+05    0.143775975022364E+02    0.117381889386262E-01    0.472456085098670E-02    0.977105782854330E-04    0.472025944995477E-02    0.977379673206502E-04
    0.432000000000000E+05    0.143814250051710E+02    0.119053573581066E-01    0.384713843094172E-02    0.101739789410503E-03    0.384997313565014E-02    0.101751855538735E-03
    0.468000000000000E+05    0.143832083757893E+02    0.120736226098603E-01    0.182620788729890E-02    0.103431282999442E-03    0.183591384723431E-02    0.103427440656300E-03
    0.504000000000000E+05    0.143857020210238E+02    0.122388422664572E-01    0.253466572472760E-02    0.105779131531703E-03    0.253707490582569E-02    0.105773882804352E-03
    0.540000000000000E+05    0.143883195250487E+02    0.123907117493771E-01    0.265240261148167E-02    0.104618458788153E-03    0.264890362937146E-02    0.104617283886682E-03
    0.576000000000000E+05    0.143943916541115E+02    0.125293422010496E-01    0.608800245980241E-02    0.108986966459857E-03    0.608086088311521E-02    0.108993907773398E-03
    0.612000000000000E+05    0.144021264358860E+02    0.126609736366324E-01    0.774386756893017E-02    0.114424390537245E-03    0.774068705372234E-02    0.114433328711850E-03
    0.648000000000000E+05    0.144104369895879E+02    0.127871391284122E-01    0.831529277993118E-02    0.118430225469826E-03    0.831270368802210E-02    0.118440715369813E-03
    0.684000000000000E+05    0.144184141504642E+02    0.129063335819402E-01    0.797561442731233E-02    0.120342782983340E-03    0.797206676756354E-02    0.120353463747968E-03
    0.720000000000000E+05    0.144277751808019E+02    0.130238071720211E-01    0.935266192479646E-02    0.125654478682496E-03    0.935252838865124E-02    0.125649488295511E-03
    0.756000000000000E+05    0.144368078419731E+02    0.131371568976406E-01    0.901863040446016E-02    0.127737316340014E-03    0.901636765640075E-02    0.127745104657152E-03
    0.792000000000000E+05    0.144461573959209E+02    0.132485358080574E-01    0.932987423424928E-02    0.131072842251408E-03    0.932984070028215E-02    0.131068560484823E-03
    0.828000000000000E+05    0.144556012505941E+02    0.133584505082877E-01    0.941952890535474E-02    0.134196287311837E-03    0.941969309436105E-02    0.134192301826533E-03
    0.864000000000000E+05    0.144659114092728E+02    0.134681255767727E-01    0.102818769925133E-01    0.137829107621514E-03    0.102824754588979E-01    0.137825363126105E-03
    0.900000000000000E+05    0.144761162329777E+02    0.135765278758722E-01    0.101735774083736E-01    0.139967172353694E-03    0.101729850790927E-01    0.139971619457974E-03
    0.936000000000000E+05    0.144868052157559E+02    0.136852675437109E-01    0.106636925150289E-01    0.143244250619559E-03    0.106656615868430E-01    0.143248903251871E-03
    0.972000000000000E+05    0.144921107294898E+02    0.137973553782817E-01    0.131004854242591E-01    0.147582644280804E-03    0.519474401104020E-02    0.147696312386989E-03
    0.100800000000000E+06    0.144967283034395E+02    0.139081256458496E-01    0.136890898541953E-01    0.148325044917133E-03    0.457702999559975E-02    0.148361342262372E-03
    0.104400000000000E+06    0.145011609684274E+02    0.140203185831701E-01    0.149281539195165E-01    0.150482047479181E-03    0.439152209474757E-02    0.150506221422726E-03
    0.108000000000000E+06    0.145054112650581E+02    0.141349869184113E-01    0.162586559091387E-01    0.153005406263733E-03    0.420925418727301E-02    0.153013615224990E-03
    0.111600000000000E+06    0.145094782435958E+02    0.142508768635933E-01    0.171025507892905E-01    0.154397047407127E-03    0.402595125920366E-02    0.154380405568272E-03
    0.115200000000000E+06    0.145133590407154E+02    0.143668962892301E-01    0.181114021011031E-01    0.155547471542046E-03    0.383897385456314E-02    0.155515918298020E-03
    0.118800000000000E+06    0.145170488479233E+02    0.144798994241066E-01    0.173484312843492E-01    0.153860601683646E-03    0.364691344749323E-02    0.153836740145471E-03
    0.122400000000000E+06    0.145205352318099E+02    0.145965247642034E-01    0.128082666718907E-01    0.151753523599234E-03    0.344950345253012E-02    0.151770010788777E-03
    0.126000000000000E+06    0.145238120369762E+02    0.147187822100707E-01    0.954021193612104E-02    0.150204192343875E-03    0.324740411801646E-02    0.150065885491550E-03
    0.129600000000000E+06    0.145268767475910E+02    0.148424727730837E-01    0.497338336903159E-02    0.144798009218670E-03    0.304243305488785E-02    0.144496236648611E-03
    0.133200000000000E+06    0.145297321218434E+02    0.149668742509493E-01    0.333796826170661E-02    0.141580518701120E-03    0.283727623939159E-02    0.141188421736518E-03
    0.136800000000000E+06    0.145315138136487E+02    0.150932944509056E-01    0.178527464738719E-02    0.140357663332071E-03    0.173304924342618E-02    0.139496376230825E-03
    0.140400000000000E+06    0.145306855951461E+02    0.152176426192346E-01   -0.839109267158756E-03    0.133712731570589E-03   -0.828906487571894E-03    0.133446071673159E-03
    0.144000000000000E+06    0.145317348445252E+02    0.153371455640448E-01    0.103881047784680E-02    0.131369265681479E-03    0.103235212473193E-02    0.131358561625197E-03
    0.147600000000000E+06    0.145345499924466E+02    0.154512975002977E-01    0.279958565628653E-02    0.131468569951876E-03    0.279236003479002E-02    0.131473687519539E-03
    0.151200000000000E+06    0.145379158136133E+02    0.155658732664552E-01    0.407999063079429E-02    0.134073030839372E-03    0.324359112184660E-02    0.134421807167321E-03
    0.154800000000000E+06    0.145400232897508E+02    0.156730762011502E-01    0.500242036969233E-02    0.133448151410062E-03    0.208084006979610E-02    0.133565244772423E-03
    0.158400000000000E+06    0.145419564301947E+02    0.157788222244752E-01    0.664995007422300E-02    0.135911683180074E-03    0.190267136291790E-02    0.136077857201404E-03
    0.162000000000000E+06    0.145437333491472E+02    0.158843887141807E-01    0.667556301064039E-02    0.137150809138865E-03    0.174509633274091E-02    0.137291367919487E-03
    0.165600000000000E+06    0.145453725832310E+02    0.159916859394224E-01    0.754492100849956E-02    0.139503292145180E-03    0.160683774905241E-02    0.139564020716534E-03
    0.169200000000000E+06    0.145468933952224E+02    0.160953613534144E-01    0.747707715819749E-02    0.138332964125607E-03    0.148599585525205E-02    0.138343611829629E-03
    0.172800000000000E+06    0.145483099626064E+02    0.162002090006545E-01    0.887788893896102E-02    0.140918003515750E-03    0.138036184349942E-02    0.140944846920480E-03
    0.176400000000000E+06    0.145496350497887E+02    0.163028460931890E-01    0.814463120693031E-02    0.139932267775750E-03    0.128767648105467E-02    0.139943876538860E-03
    0.180000000000000E+06    0.145508809857389E+02    0.164022147955701E-01    0.861302071811603E-02    0.139224273150702E-03    0.120584624259170E-02    0.140516274394175E-03
    0.183600000000000E+06    0.145520561877336E+02    0.165026825427553E-01    0.106954203326909E-01    0.142449361875916E-03    0.113297417522210E-02    0.144048152687979E-03
    0.187200000000000E+06    0.145531681566112E+02    0.166007474597902E-01    0.107975838718555E-01    0.142123655273025E-03    0.106762909263526E-02    0.143888006056677E-03
    0.190800000000000E+06    0.145542237234772E+02    0.166958445924565E-01    0.111567532647494E-01    0.141694538319387E-03    0.100858066780698E-02    0.144235736671105E-03
    0.194400000000000E+06    0.145552263415088E+02    0.167926176313743E-01    0.119829861676298E-01    0.144333122845945E-03    0.954856209610092E-03    0.145506383494197E-03
    0.198000000000000E+06    0.145561806403058E+02    0.168903353755955E-01    0.130007582943629E-01    0.146141737271444E-03    0.905686495947481E-03    0.146762015600023E-03
    0.201600000000000E+06    0.145570907861386E+02    0.169854537464337E-01    0.122474372404330E-01    0.144577048028574E-03    0.860468633381045E-03    0.145215020975415E-03
    0.205200000000000E+06    0.145579602513142E+02    0.170756485837803E-01    0.994075640398155E-02    0.140708643883301E-03    0.818723172337133E-03    0.141426877849176E-03
    0.208800000000000E+06    0.145587913279139E+02    0.171643131109444E-01    0.817775489411975E-02    0.139553455790417E-03    0.780062582735199E-03    0.139474336492235E-03
    0.212400000000000E+06    0.145595837300407E+02    0.172520560214948E-01    0.251688463843475E-02    0.136247750438245E-03    0.744167904339338E-03    0.131984207224786E-03
    0.216000000000000E+06    0.145594549486842E+02    0.173376859065891E-01   -0.143003693630110E-03    0.131967511632399E-03   -0.173193959895399E-03    0.131865068945862E-03
    0.219600000000000E+06    0.145578125885660E+02    0.174208178255558E-01   -0.168752656382717E-02    0.127637533759764E-03   -0.168475616191027E-02    0.127619351829020E-03
    0.223200000000000E+06    0.145562528410771E+02    0.175003515047521E-01   -0.160323416332520E-02    0.124689290674442E-03   -0.161046589738729E-02    0.124682234299824E-03
    0.226800000000000E+06    0.145536720200602E+02    0.175742539182303E-01   -0.262457231201339E-02    0.120544870954526E-03   -0.263785475309570E-02    0.120548622112051E-03
    0.230400000000000E+06    0.145531302977550E+02    0.176453371601219E-01   -0.591102013633467E-03    0.120609616671799E-03   -0.591764962207521E-03    0.120608771097178E-03
    0.234000000000000E+06    0.145534358720668E+02    0.177128469815205E-01    0.252951549629758E-03    0.120237255697776E-03    0.252483575134571E-03    0.120236318882333E-03
    0.237600000000000E+06    0.145541664682744E+02    0.177786865740940E-01    0.678432315637337E-03    0.121078565008760E-03    0.664605765509510E-03    0.121104042762542E-03
    0.241200000000000E+06    0.145559375134080E+02    0.178433769728864E-01    0.171821773173131E-02    0.122654699900047E-03    0.169773478049910E-02    0.122689074652795E-03
    0.244800000000000E+06    0.145579960223028E+02    0.179070659280779E-01    0.200232683206212E-02    0.123852217092806E-03    0.198912658265427E-02    0.123881649807355E-03
    0.248400000000000E+06    0.145596139910446E+02    0.179702881900003E-01    0.213839306610608E-02    0.124333294283750E-03    0.149181113880715E-02    0.125282679367437E-03
    0.252000000000000E+06    0.145607232648646E+02    0.180321587184670E-01    0.233974190929799E-02    0.125334846255648E-03    0.104565288305617E-02    0.125554482080502E-03
    0.255600000000000E+06    0.145616903966852E+02    0.180929130770739E-01    0.206917564200851E-02    0.125142998761957E-03    0.903422361827975E-03    0.129196488377918E-03
    0.259200000000000E+06    0.145625534844742E+02    0.181529730341148E-01    0.213828510229545E-02    0.125441226059847E-03    0.798055198233671E-03    0.128859934001351E-03
    0.262800000000000E+06    0.145633384643069E+02    0.182110381083126E-01    0.105620499396899E-02    0.124251444834295E-03    0.718915453688503E-03    0.127233793563860E-03
    0.266400000000000E+06    0.145640630141022E+02    0.182701206758933E-01    0.149120027880219E-02    0.125866651353155E-03    0.657766193940719E-03    0.128427214804905E-03
    0.270000000000000E+06    0.145642954981186E+02    0.183266742929351E-01    0.168927850648616E-03    0.123696855483492E-03    0.134024455813638E-03    0.123758350813563E-03
    0.273600000000000E+06    0.145646307641629E+02    0.183830230364906E-01    0.268904114319077E-03    0.124029970822417E-03    0.264377939489541E-03    0.124037685301785E-03
    0.277200000000000E+06    0.145644998289870E+02    0.184386756709861E-01   -0.197706182877993E-03    0.123514410922575E-03   -0.201942274988186E-03    0.123521091701299E-03
    0.280800000000000E+06    0.145641474137016E+02    0.184939837574833E-01   -0.420296551297486E-03    0.123230685939266E-03   -0.420473214176986E-03    0.123228002976181E-03
    0.284400000000000E+06    0.145628527965697E+02    0.185475252431355E-01   -0.136169542532777E-02    0.121443945407515E-03   -0.136563498536224E-02    0.121448827837843E-03
    0.288000000000000E+06    0.145608837155394E+02    0.185998565223629E-01   -0.203668729501732E-02    0.120147356641626E-03   -0.203772585431780E-02    0.120144943775285E-03
    0.291600000000000E+06    0.145601832942412E+02    0.186545153091249E-01   -0.767986784584260E-03    0.122291523455936E-03   -0.768330216013610E-03    0.122289999445667E-03
    0.295200000000000E+06    0.145590287032344E+02    0.187087147810254E-01   -0.122190509835658E-02    0.121594229837357E-03   -0.122231304147041E-02    0.121592818853602E-03
    0.298800000000000E+06    0.145574747444372E+02    0.187624697003855E-01   -0.162098353889601E-02    0.120867349749399E-03   -0.162143126942180E-02    0.120866062153522E-03
    0.302400000000000E+06    0.145560057511392E+02    0.188166030651924E-01   -0.153571277010679E-02    0.120920662046549E-03   -0.153606324977415E-02    0.120919608840769E-03
    0.306000000000000E+06    0.145549906684834E+02    0.188718168003735E-01   -0.107934298386477E-02    0.121632885259065E-03   -0.109163057825477E-02    0.121661269860190E-03
    0.309600000000000E+06    0.145525640587810E+02    0.189249198892532E-01   -0.249256935718594E-02    0.119161349615086E-03   -0.249307140898542E-02    0.119160322206395E-03
    0.313200000000000E+06    0.145498187361091E+02    0.189775584947871E-01   -0.281092737665064E-02    0.118331928203856E-03   -0.281136247042555E-02    0.118331021914801E-03
    0.316800000000000E+06    0.145462322952747E+02    0.190290141508506E-01   -0.365166903247401E-02    0.116799489972456E-03   -0.365217857436548E-02    0.116798525394738E-03
    0.320400000000000E+06    0.145440677008542E+02    0.190827745226225E-01   -0.222852486144098E-02    0.118736006851481E-03   -0.223506036424078E-02    0.118755630789933E-03
    0.324000000000000E+06    0.145414012426838E+02    0.191354584485950E-01   -0.272925921796805E-02    0.117301879290136E-03   -0.274056362718706E-02    0.117318962023925E-03
    0.327600000000000E+06    0.145378028158826E+02    0.191868055383121E-01   -0.366263246243274E-02    0.115630564439768E-03   -0.366290422949192E-02    0.115629960624248E-03
    0.331200000000000E+06    0.145343153204743E+02    0.192382536757600E-01   -0.354971319103664E-02    0.115405232031415E-03   -0.356062955095493E-02    0.115419831012484E-03
    0.334800000000000E+06    0.145312507316305E+02    0.192907634502883E-01   -0.312722546556634E-02    0.116147752172915E-03   -0.313361617930752E-02    0.116159997693099E-03
    0.338400000000000E+06    0.145266431718517E+02    0.193404938775691E-01   -0.467080174141739E-02    0.113082418212124E-03   -0.467095786582114E-02    0.113081877634691E-03
    0.342000000000000E+06    0.145231168511126E+02    0.193917859579012E-01   -0.358861425542286E-02    0.114359081915086E-03   -0.359346752395307E-02    0.114369120400338E-03
    0.345600000000000E+06    0.145189273848515E+02    0.194417254996670E-01   -0.425068520206320E-02    0.112743759298553E-03   -0.426047839077208E-02    0.112753585480091E-03
    0.349200000000000E+06    0.145140390059895E+02    0.194902528814888E-01   -0.495081756276660E-02    0.111096210067542E-03   -0.495081086049219E-02    0.111095848955053E-03
    0.352800000000000E+06    0.145085529867895E+02    0.195376290560753E-01   -0.554817921102467E-02    0.109736265639812E-03   -0.554809378250596E-02    0.109735888528085E-03
    0.356400000000000E+06    0.145033246968177E+02    0.195851756498459E-01   -0.528880535024226E-02    0.109713987727339E-03   -0.529783046862751E-02    0.109723403325585E-03
    0.360000000000000E+06    0.144983584858658E+02    0.196327282126635E-01   -0.502685271247697E-02    0.109540204297749E-03   -0.503396946775548E-02    0.109547842035595E-03
    0.363600000000000E+06    0.144928373739790E+02    0.196792865853778E-01   -0.558109498372340E-02    0.108383729854027E-03   -0.559034357060480E-02    0.108390584495862E-03
    0.367200000000000E+06    0.144874020767596E+02    0.197256333786332E-01   -0.549536070420498E-02    0.108020737340142E-03   -0.550272813834825E-02    0.108026196082316E-03
    0.370800000000000E+06    0.144816520680212E+02    0.197708139301023E-01   -0.580963499759024E-02    0.106716899951355E-03   -0.581760387977894E-02    0.106721590156380E-03
    0.374400000000000E+06    0.144751281892399E+02    0.198139439621802E-01   -0.658261789444408E-02    0.104550301495032E-03   -0.659219608726869E-02    0.104554944618188E-03
    0.378000000000000E+06    0.144675712810593E+02    0.198541457171087E-01   -0.761628938569433E-02    0.101536142049370E-03   -0.761580583250260E-02    0.101535943723302E-03
    0.381600000000000E+06    0.144595288767866E+02    0.198921546550421E-01   -0.810051099833409E-02    0.992856108801540E-04   -0.809987858338966E-02    0.992854512592805E-04
    0.385200000000000E+06    0.144505282271576E+02    0.199272059289033E-01   -0.905601247869088E-02    0.963040533787764E-04   -0.905516273164165E-02    0.963039073640696E-04
    0.388800000000000E+06    0.144415394092648E+02    0.199605628375988E-01   -0.904174132936694E-02    0.946094481890119E-04   -0.904064844872660E-02    0.946093928857885E-04
    0.392400000000000E+06    0.144315920965043E+02    0.199906060657809E-01   -0.999374987566900E-02    0.913232965228746E-04   -0.999239074542897E-02    0.913232758019451E-04
    0.396000000000000E+06    0.144223054466816E+02    0.200200999316028E-01   -0.933080560822625E-02    0.908113633434370E-04   -0.932902361925810E-02    0.908114518037890E-04
