cumulated moisture contents + flows
          time (s)             material     3       flow to boundary     1   flow to boundary     2  flow from boundary     1 flow from boundary     2
    0.000000000000000E+00    0.944561315586047E-01    0.000000000000000E+00    0.000000000000000E+00    0.000000000000000E+00    0.000000000000000E+00
    0.360000000000000E+04    0.943317642416657E-01   -0.128193289404416E-03    0.331920669876298E-05   -0.127667633583039E-03    0.331920669824513E-05
    0.720000000000000E+04    0.945654493839361E-01    0.228405146321775E-03    0.497954873521884E-05    0.228780618224571E-03    0.497954872691144E-05
    0.108000000000000E+05    0.952226089316678E-01    0.642743995488116E-03    0.132481164361529E-04    0.644077720324409E-03    0.132481164932875E-04
    0.144000000000000E+05    0.957766718368491E-01    0.530115587381968E-03    0.239361320683985E-04    0.530116927768597E-03    0.239361320702469E-04
    0.180000000000000E+05    0.966082871640915E-01    0.794937245261394E-03    0.366656188478595E-04    0.794819854824007E-03    0.366656188562028E-04
    0.216000000000000E+05    0.977247018797134E-01    0.106593060492796E-02    0.503648367552911E-04    0.106586228084254E-02    0.503648367654804E-04
    0.252000000000000E+05    0.987530069472818E-01    0.964272676986457E-03    0.641777033793416E-04    0.964197268390867E-03    0.641777033693707E-04
    0.288000000000000E+05    0.997706715608662E-01    0.940044752027686E-03    0.774993713178743E-04    0.940052548791466E-03    0.774993713290574E-04
    0.324000000000000E+05    0.100892008934794E+00    0.103141332051515E-02    0.899289170553895E-04    0.103145682096488E-02    0.899289170558067E-04
    0.360000000000000E+05    0.102814111346788E+00    0.182063870396247E-02    0.101283493440861E-03    0.182044014783999E-02    0.101283493451928E-03
    0.396000000000000E+05    0.104031996010314E+00    0.110652376670462E-02    0.111486891011845E-03    0.110653923594783E-02    0.111486891002329E-03
    0.432000000000000E+05    0.105858105708013E+00    0.170558851404723E-02    0.120521046997024E-03    0.170564548575008E-02    0.120521046997382E-03
    0.468000000000000E+05    0.106105916045335E+00    0.119437709199721E-03    0.128390180119877E-03    0.119467942962742E-03    0.128390180109532E-03
    0.504000000000000E+05    0.106423588904225E+00    0.182570133521687E-03    0.135133096220597E-03    0.182506246525490E-03    0.135133094177292E-03
    0.540000000000000E+05    0.106618542896475E+00    0.541400669670321E-04    0.140839173066323E-03    0.541485134842581E-04    0.140839168245841E-03
    0.576000000000000E+05    0.106942564573871E+00    0.178621928655470E-03    0.145639303033824E-03    0.178231265112524E-03    0.145639302287279E-03
    0.612000000000000E+05    0.107553944310307E+00    0.461654040722512E-03    0.149710658588531E-03    0.461591334663408E-03    0.149710658599018E-03
    0.648000000000000E+05    0.108715164580493E+00    0.100790723380406E-02    0.153263354388644E-03    0.100761490836493E-02    0.153263354398338E-03
    0.684000000000000E+05    0.109582803075126E+00    0.711112932764433E-03    0.156500343509474E-03    0.710944435643944E-03    0.156500343514495E-03
    0.720000000000000E+05    0.109888966114505E+00    0.146580379957113E-03    0.159589514916235E-03    0.146500152463427E-03    0.159589514919765E-03
    0.756000000000000E+05    0.109621446614048E+00   -0.430091966074558E-03    0.162618006125791E-03   -0.430482276001964E-03    0.162618010810017E-03
    0.792000000000000E+05    0.109737498098266E+00   -0.498743575595607E-04    0.165612809264256E-03   -0.495360879698601E-04    0.165612812766792E-03
    0.828000000000000E+05    0.110136002145859E+00    0.230042049551347E-03    0.168538628072819E-03    0.229796750969212E-03    0.168538624663514E-03
    0.864000000000000E+05    0.110823066508286E+00    0.516075143627789E-03    0.171319028800637E-03    0.515225806841737E-03    0.171319024373354E-03
    0.900000000000000E+05    0.111615775513444E+00    0.618880381329400E-03    0.173873179969678E-03    0.618849038491202E-03    0.173873179979174E-03
    0.936000000000000E+05    0.111886326438504E+00    0.947171529283185E-04    0.176149308612611E-03    0.942814381247825E-04    0.176149300228172E-03
    0.972000000000000E+05    0.111766692264232E+00   -0.297865092635576E-03    0.178136067874044E-03   -0.297467318429438E-03    0.178133650882712E-03
    0.100800000000000E+06    0.111755673863898E+00   -0.190944564910687E-03    0.179856032074809E-03   -0.191103821874711E-03    0.179856046042387E-03
    0.104400000000000E+06    0.112387393916280E+00    0.449946832195093E-03    0.181346989993040E-03    0.450750154043141E-03    0.181345032101193E-03
    0.108000000000000E+06    0.114034870748061E+00    0.146492725852430E-02    0.182644478685428E-03    0.146495289551959E-02    0.182644479051862E-03
    0.111600000000000E+06    0.117083888150870E+00    0.286507886867091E-02    0.183778757141198E-03    0.286589101111698E-02    0.183778757137947E-03
    0.115200000000000E+06    0.122251861537769E+00    0.498300821135870E-02    0.184778444006476E-03    0.498179675651865E-02    0.184778444006476E-03
    0.118800000000000E+06    0.124306292403204E+00    0.186891440681540E-02    0.185674037735706E-03    0.186891510097526E-02    0.185674037733503E-03
    0.122400000000000E+06    0.124796742046408E+00    0.303857525930568E-03    0.186487028180951E-03    0.303833043318879E-03    0.186487028433695E-03
    0.126000000000000E+06    0.124590666150897E+00   -0.393382684195411E-03    0.187213760341168E-03   -0.392433802090245E-03    0.187213755687449E-03
    0.129600000000000E+06    0.124056986362050E+00   -0.722080320181897E-03    0.187822455418413E-03   -0.720325165161256E-03    0.187822451062260E-03
    0.133200000000000E+06    0.123962577590832E+00   -0.283042819516865E-03    0.188274395514570E-03   -0.282047316089331E-03    0.188274388954168E-03
    0.136800000000000E+06    0.124747193196807E+00    0.596841411562940E-03    0.188549633834156E-03    0.594921963275298E-03    0.188549630496605E-03
    0.140400000000000E+06    0.126164296342735E+00    0.122861188842954E-02    0.188657640050675E-03    0.122854863398564E-02    0.188657646301497E-03
    0.144000000000000E+06    0.128289288017762E+00    0.193644238566498E-02    0.188634320289752E-03    0.193596475126533E-02    0.188634320206946E-03
    0.147600000000000E+06    0.130482510872095E+00    0.200491326288473E-02    0.188529585154969E-03    0.200392059189230E-02    0.188529585009549E-03
    0.151200000000000E+06    0.132845732673661E+00    0.217522972995953E-02    0.188386115552834E-03    0.217529854395770E-02    0.188386119913648E-03
    0.154800000000000E+06    0.134347916897518E+00    0.131373557317554E-02    0.188229107908781E-03    0.131363499144735E-02    0.188229111906100E-03
    0.158400000000000E+06    0.134729828316466E+00    0.193364382061248E-03    0.188070758080975E-03    0.193821362504752E-03    0.188070765541968E-03
    0.162000000000000E+06    0.134878324982080E+00   -0.397761371924134E-04    0.187920101108984E-03   -0.395231806226213E-04    0.187920111334919E-03
    0.165600000000000E+06    0.134542243245499E+00   -0.523873147492439E-03    0.187782634249759E-03   -0.523856366505059E-03    0.187782637671806E-03
    0.169200000000000E+06    0.135060647935209E+00    0.329945041550424E-03    0.187667410838699E-03    0.331621068121173E-03    0.187667425804732E-03
    0.172800000000000E+06    0.135229112510282E+00   -0.192201011592639E-04    0.187595546838347E-03   -0.191023857315247E-04    0.187595549082523E-03
    0.176400000000000E+06    0.136059689225344E+00    0.642981013302724E-03    0.187591305656143E-03    0.642812384698920E-03    0.187591305430436E-03
    0.180000000000000E+06    0.136571421293880E+00    0.323826822410732E-03    0.187675496118991E-03    0.324245555909177E-03    0.187675498687950E-03
    0.183600000000000E+06    0.137778543592098E+00    0.101849727061353E-02    0.187853187404631E-03    0.102002132329878E-02    0.187853194778031E-03
    0.187200000000000E+06    0.138684109286472E+00    0.717204549486142E-03    0.188110911076220E-03    0.717649590282217E-03    0.188110915999771E-03
    0.190800000000000E+06    0.139279683505132E+00    0.407619145000008E-03    0.188418461250717E-03    0.406773542456764E-03    0.188418459611987E-03
    0.194400000000000E+06    0.138778890659687E+00   -0.689690141651401E-03    0.188740084292291E-03   -0.688958105170190E-03    0.188740084525787E-03
    0.198000000000000E+06    0.138206613883906E+00   -0.761369336257845E-03    0.189047853826717E-03   -0.761394276698079E-03    0.189047700528323E-03
    0.201600000000000E+06    0.137799846830219E+00   -0.596026278003306E-03    0.189325651640521E-03   -0.596281542550158E-03    0.189325535857045E-03
    0.205200000000000E+06    0.137601794659087E+00   -0.388113253169845E-03    0.189563830385063E-03   -0.386734825533324E-03    0.189563755017071E-03
    0.208800000000000E+06    0.137249469724042E+00   -0.542045082506225E-03    0.189733494904400E-03   -0.541979897241690E-03    0.189733494999102E-03
    0.212400000000000E+06    0.136845362545345E+00   -0.594145607289528E-03    0.189793624976409E-03   -0.593494119721339E-03    0.189793620654111E-03
    0.216000000000000E+06    0.136201392585084E+00   -0.833619160504047E-03    0.189691749706038E-03   -0.833590318342920E-03    0.189691749803884E-03
    0.219600000000000E+06    0.135513242911673E+00   -0.877904919359271E-03    0.189361440628650E-03   -0.877087760609159E-03    0.189361436345842E-03
    0.223200000000000E+06    0.134722756512451E+00   -0.979772003721094E-03    0.188721754439196E-03   -0.978747512219346E-03    0.188721748715406E-03
    0.226800000000000E+06    0.134170757992702E+00   -0.739681704074533E-03    0.187716615311656E-03   -0.739679798287301E-03    0.187716615412222E-03
    0.230400000000000E+06    0.133706026152334E+00   -0.651308307896664E-03    0.186350718173476E-03   -0.650892605673358E-03    0.186350711910483E-03
    0.234000000000000E+06    0.133483284373762E+00   -0.407538893511020E-03    0.184732498158245E-03   -0.407634262413192E-03    0.184732507455131E-03
    0.237600000000000E+06    0.133329374713661E+00   -0.337271413207821E-03    0.183044163777010E-03   -0.337027786184079E-03    0.183044170723640E-03
    0.241200000000000E+06    0.133459727998910E+00   -0.512968986526393E-04    0.181482018232129E-03   -0.511039572724345E-04    0.181482022461315E-03
    0.244800000000000E+06    0.133840508573218E+00    0.200150020905735E-03    0.180188029202509E-03    0.200879854694717E-03    0.180188039243486E-03
    0.248400000000000E+06    0.134386392773680E+00    0.366444056382455E-03    0.179213450643077E-03    0.366981587932880E-03    0.179213455528997E-03
    0.252000000000000E+06    0.134924679076226E+00    0.359779842783715E-03    0.178526446180692E-03    0.359760812371125E-03    0.178526445813752E-03
    0.255600000000000E+06    0.135296370494684E+00    0.193452304192801E-03    0.178069788885985E-03    0.193739662987887E-03    0.178069792703220E-03
    0.259200000000000E+06    0.135463150654045E+00   -0.111322576633521E-04    0.177808303228071E-03   -0.110028512342946E-04    0.177808307417826E-03
    0.262800000000000E+06    0.135569421302363E+00   -0.715538868846014E-04    0.177731357348447E-03   -0.714654308657349E-04    0.177731362353956E-03
    0.266400000000000E+06    0.135862585387766E+00    0.115183921887951E-03    0.177831881791122E-03    0.115429336766788E-03    0.177831886509671E-03
    0.270000000000000E+06    0.136742421221023E+00    0.701718821058532E-03    0.178089858057945E-03    0.701712252475390E-03    0.178089857963073E-03
    0.273600000000000E+06    0.137974853027271E+00    0.105413934539447E-02    0.178468145303445E-03    0.105404454485783E-02    0.178468145460750E-03
    0.277200000000000E+06    0.140324979708776E+00    0.217115342194032E-02    0.178919466700969E-03    0.217149933836340E-02    0.178919466704698E-03
    0.280800000000000E+06    0.143088942961452E+00    0.258443989507543E-02    0.179401665966716E-03    0.258462729181880E-02    0.179401665965617E-03
    0.284400000000000E+06    0.145750678321509E+00    0.248197185490702E-02    0.179888758090602E-03    0.248173306999238E-02    0.179888758123613E-03
    0.288000000000000E+06    0.147078900339237E+00    0.114792642258844E-02    0.180373449058874E-03    0.114791697852154E-02    0.180373449052170E-03
    0.291600000000000E+06    0.146827809896555E+00   -0.431949132722315E-03    0.180859124331919E-03   -0.431905125945134E-03    0.180859124319974E-03
    0.295200000000000E+06    0.145990127938647E+00   -0.101898667788756E-02    0.181327824154284E-03   -0.101886166131168E-02    0.181327824240905E-03
    0.298800000000000E+06    0.145301520969665E+00   -0.870819279191913E-03    0.181720030396662E-03   -0.869425663056612E-03    0.181720026770730E-03
    0.302400000000000E+06    0.144823798032620E+00   -0.659669781660419E-03    0.181933975676806E-03   -0.659328468728941E-03    0.181933975765100E-03
    0.306000000000000E+06    0.144833302410109E+00   -0.173784470293818E-03    0.181861163665537E-03   -0.171480411364252E-03    0.181861154220536E-03
    0.309600000000000E+06    0.145029900812221E+00    0.146954659253598E-04    0.181427593653199E-03    0.153358692039029E-04    0.181427588011886E-03
    0.313200000000000E+06    0.146076805862512E+00    0.866337499949308E-03    0.180631963435887E-03    0.866298185486247E-03    0.180631963054971E-03
    0.316800000000000E+06    0.147515803638091E+00    0.125938735692269E-02    0.179553626706398E-03    0.125919628670901E-02    0.179553626648245E-03
    0.320400000000000E+06    0.148643567078141E+00    0.948798203067477E-03    0.178352684082880E-03    0.949771561809762E-03    0.178352686722743E-03
    0.324000000000000E+06    0.149721735256019E+00    0.900342966674009E-03    0.177231163830803E-03    0.901287348752564E-03    0.177231166393334E-03
    0.327600000000000E+06    0.150672933165003E+00    0.773675150395604E-03    0.176370436305144E-03    0.775465413703339E-03    0.176370440399877E-03
    0.331200000000000E+06    0.152173000357975E+00    0.132418901315480E-02    0.175865282980254E-03    0.132397820700379E-02    0.175865282946379E-03
    0.334800000000000E+06    0.154565359035376E+00    0.221676486437301E-02    0.175698601988746E-03    0.221720282287794E-02    0.175698602025217E-03
    0.338400000000000E+06    0.157410249825063E+00    0.266901400223244E-02    0.175771040622667E-03    0.266952343391431E-02    0.175771040627070E-03
    0.342000000000000E+06    0.160215987727074E+00    0.263013865275495E-02    0.175980218405827E-03    0.262905026754465E-02    0.175980218266434E-03
    0.345600000000000E+06    0.167048068411999E+00    0.665585222721148E-02    0.176262966358400E-03    0.665479338467278E-02    0.176262966358400E-03
    0.349200000000000E+06    0.173935694789985E+00    0.671043876973608E-02    0.176602254527616E-03    0.671042804284708E-02    0.176602254527799E-03
    0.352800000000000E+06    0.182383497419455E+00    0.827074442691643E-02    0.177007948269334E-03    0.826940337105169E-02    0.177007948269339E-03
    0.356400000000000E+06    0.189104488498518E+00    0.654389298253081E-02    0.177492324786581E-03    0.654573015540596E-02    0.177492324745573E-03
    0.360000000000000E+06    0.197623406397213E+00    0.834095047986583E-02    0.178047467779050E-03    0.834118278912319E-02    0.178047467779045E-03
    0.363600000000000E+06    0.207838280602981E+00    0.100362907001989E-01    0.178635225349550E-03    0.100369506100044E-01    0.178635225349544E-03
    0.367200000000000E+06    0.219700975382856E+00    0.116833918187102E-01    0.179186973540378E-03    0.116819126543063E-01    0.179186973540401E-03
    0.370800000000000E+06    0.234742816992697E+00    0.148620218087401E-01    0.179623766062392E-03    0.148602431341530E-01    0.179623766062413E-03
    0.374400000000000E+06    0.247513081728534E+00    0.125903696698481E-01    0.179889512361840E-03    0.125909675692612E-01    0.179889512361820E-03
    0.378000000000000E+06    0.264541390373069E+00    0.168482966598616E-01    0.179942334070978E-03    0.168487327607518E-01    0.179942334070979E-03
    0.381600000000000E+06    0.279886528697448E+00    0.151652880693216E-01    0.179743867208882E-03    0.151658117287559E-01    0.179743867208713E-03
    0.385200000000000E+06    0.282685844911815E+00    0.262001807228532E-02    0.179278279861731E-03    0.262007950793699E-02    0.179278279861676E-03
    0.388800000000000E+06    0.280998156609763E+00   -0.186623081761446E-02    0.178539994969566E-03   -0.186621676375006E-02    0.178539994973539E-03
    0.392400000000000E+06    0.272455916705545E+00   -0.872010504344169E-02    0.177520138231352E-03   -0.870717075005455E-02    0.177520138237368E-03
    0.396000000000000E+06    0.264707262680831E+00   -0.792508886254304E-02    0.176237034041774E-03   -0.791800661356182E-02    0.176237034074183E-03
    0.399600000000000E+06    0.258707603926116E+00   -0.617428873572486E-02    0.174748652637438E-03   -0.617474310119629E-02    0.174748652643195E-03
    0.403200000000000E+06    0.255258694181841E+00   -0.362205363664299E-02    0.173136627291426E-03   -0.362199059921983E-02    0.173136627293681E-03
    0.406800000000000E+06    0.253005592810030E+00   -0.242464944458097E-02    0.171484122165625E-03   -0.242496600700895E-02    0.171484121361909E-03
    0.410400000000000E+06    0.251497467600033E+00   -0.167799980963049E-02    0.169858467883304E-03   -0.167794738525776E-02    0.169858467137337E-03
    0.414000000000000E+06    0.249361882109872E+00   -0.230390267060811E-02    0.168288168088267E-03   -0.230239519234426E-02    0.168288168122723E-03
    0.417600000000000E+06    0.248141410394427E+00   -0.138731676926215E-02    0.166781284532741E-03   -0.138771854434148E-02    0.166781281709905E-03
    0.421200000000000E+06    0.246431396022438E+00   -0.187532356979165E-02    0.165338268250554E-03   -0.187495577597718E-02    0.165338267675945E-03
    0.424800000000000E+06    0.245723857296280E+00   -0.872467910642919E-03    0.163954751806565E-03   -0.868820435007766E-03    0.163954746360706E-03
    0.428400000000000E+06    0.245475522022285E+00   -0.411215968142316E-03    0.162625090234027E-03   -0.410357108515031E-03    0.162625086941358E-03
    0.432000000000000E+06    0.244929397707939E+00   -0.709720968244405E-03    0.161336751068477E-03   -0.701317012449963E-03    0.161336738631978E-03
    0.435600000000000E+06    0.244274840814045E+00   -0.815209322415739E-03    0.160077729445459E-03   -0.812939742726319E-03    0.160077725432404E-03
    0.439200000000000E+06    0.243487773965735E+00   -0.945453853679372E-03    0.158848569775049E-03   -0.947361310184169E-03    0.158848571921175E-03
    0.442800000000000E+06    0.242497238352604E+00   -0.114823850938029E-02    0.157660277489328E-03   -0.114833172120338E-02    0.157660275070229E-03
    0.446400000000000E+06    0.240494827788093E+00   -0.215870033195896E-02    0.156513612346099E-03   -0.215805480014808E-02    0.156513612374446E-03
    0.450000000000000E+06    0.239108419456439E+00   -0.154202090554704E-02    0.155408998842425E-03   -0.154195106023668E-02    0.155408998476112E-03
    0.453600000000000E+06    0.237605472923629E+00   -0.165713258810063E-02    0.154334645115892E-03   -0.165673377385266E-02    0.154334645131710E-03
    0.457200000000000E+06    0.237516417083542E+00   -0.242097006265634E-03    0.153289948842489E-03   -0.242447361258150E-03    0.153289952083796E-03
    0.460800000000000E+06    0.236161030561031E+00   -0.150756997429213E-02    0.152262256353354E-03   -0.150691331739590E-02    0.152262256369983E-03
    0.464400000000000E+06    0.234811837979636E+00   -0.150023856165405E-02    0.151219472980373E-03   -0.149982769439045E-02    0.151219472997241E-03
    0.468000000000000E+06    0.234116875089032E+00   -0.845173612237129E-03    0.150142010786611E-03   -0.845180252494612E-03    0.150142009476646E-03
