cumulated temperatures + heat flows
          time (s)             material     3       flow to boundary     1   flow to boundary     2  flow from boundary     1 flow from boundary     2
    0.000000000000000E+00    0.586300018175299E+02    0.000000000000000E+00    0.000000000000000E+00    0.000000000000000E+00    0.000000000000000E+00
    0.360000000000000E+04    0.582436909167457E+02   -0.654306710922033E+06    0.262663461394960E+02   -0.653146148843131E+06    0.262663906742598E+02
    0.720000000000000E+04    0.580014793690826E+02   -0.409540976932358E+06    0.400079787146671E+03   -0.409141889117205E+06    0.400082425739162E+03
    0.108000000000000E+05    0.577547312422503E+02   -0.417759757872308E+06    0.115399406029673E+04   -0.417313494080295E+06    0.115399591516826E+04
    0.144000000000000E+05    0.575665671091505E+02   -0.319947695412328E+06    0.227820437032790E+04   -0.319526782424392E+06    0.227820670728475E+04
    0.180000000000000E+05    0.573745135062395E+02   -0.327622533165209E+06    0.369530281079110E+04   -0.327272709249724E+06    0.369530396443331E+04
    0.216000000000000E+05    0.571954965795281E+02   -0.305817395223308E+06    0.531961978897815E+04   -0.305263831896859E+06    0.531962101076150E+04
    0.252000000000000E+05    0.570694234735783E+02   -0.219654926518483E+06    0.706267164129583E+04   -0.221001781044018E+06    0.706266877222038E+04
    0.288000000000000E+05    0.569384848132887E+02   -0.229211759728355E+06    0.884833382721147E+04   -0.228561100131999E+06    0.884833510815534E+04
    0.324000000000000E+05    0.568349282832644E+02   -0.183822974321109E+06    0.106171154615363E+05   -0.184483983010639E+06    0.106171165297480E+05
    0.360000000000000E+05    0.567247562194817E+02   -0.196749287390470E+06    0.123306136010895E+05   -0.196244044460559E+06    0.123306147304485E+05
    0.396000000000000E+05    0.566688765395016E+02   -0.109937933453703E+06    0.139547178847745E+05   -0.110801659533754E+06    0.139547153140306E+05
    0.432000000000000E+05    0.566112958568094E+02   -0.112252511514536E+06    0.154607342329230E+05   -0.112776897781025E+06    0.154607331917777E+05
    0.468000000000000E+05    0.565785258796567E+02   -0.727578021603899E+05    0.168270172060732E+05   -0.731472866487380E+05    0.168270160436652E+05
    0.504000000000000E+05    0.565226276113069E+02   -0.109943535439413E+06    0.180505468795512E+05   -0.110508694917716E+06    0.180505530605330E+05
    0.540000000000000E+05    0.564721221603268E+02   -0.103609642113629E+06    0.191435124929528E+05   -0.103321561828774E+06    0.191558797590481E+05
    0.576000000000000E+05    0.564257231408613E+02   -0.971618044239066E+05    0.201253765957986E+05   -0.979734688967024E+05    0.201355119574723E+05
    0.612000000000000E+05    0.563673428090208E+02   -0.119317566093384E+06    0.210176036439822E+05   -0.118444902216046E+06    0.210176047857403E+05
    0.648000000000000E+05    0.562996888424021E+02   -0.135349074997145E+06    0.218453327220921E+05   -0.134451866365582E+06    0.218453340150994E+05
    0.684000000000000E+05    0.562280139864553E+02   -0.143121359100743E+06    0.226342230271919E+05   -0.142464887942907E+06    0.226342240339889E+05
    0.720000000000000E+05    0.561512055417359E+02   -0.153477642262591E+06    0.234060348270055E+05   -0.152503091341745E+06    0.234060359991617E+05
    0.756000000000000E+05    0.560881764505534E+02   -0.131124274517957E+06    0.241719621697846E+05   -0.130719477602366E+06    0.241715413681310E+05
    0.792000000000000E+05    0.560223415854814E+02   -0.136305076565018E+06    0.249349237562184E+05   -0.135847408254112E+06    0.249349243083619E+05
    0.828000000000000E+05    0.559753606875550E+02   -0.104338652728343E+06    0.256886701891442E+05   -0.104663581853102E+06    0.256886757055850E+05
    0.864000000000000E+05    0.559375587836214E+02   -0.891649350080997E+05    0.264200384967306E+05   -0.895693029308712E+05    0.264200440883707E+05
    0.900000000000000E+05    0.559066982051593E+02   -0.780202039038765E+05    0.271146543543659E+05   -0.784100152350819E+05    0.271146599282553E+05
    0.936000000000000E+05    0.558771131128000E+02   -0.765526510361764E+05    0.277623119029446E+05   -0.776453236239322E+05    0.277619486621212E+05
    0.972000000000000E+05    0.558480142674740E+02   -0.771334340452635E+05    0.283589695453591E+05   -0.777463908724487E+05    0.283607790252626E+05
    0.100800000000000E+06    0.558181574008728E+02   -0.803868050865524E+05    0.289070178338613E+05   -0.790045393193265E+05    0.289067328827781E+05
    0.104400000000000E+06    0.558074341379586E+02   -0.476453850007752E+05    0.294056233610474E+05   -0.485953592149242E+05    0.294056226475275E+05
    0.108000000000000E+06    0.557924919721378E+02   -0.542895984652650E+05    0.298531611079282E+05   -0.549157856761160E+05    0.298531646911864E+05
    0.111600000000000E+06    0.557626718357393E+02   -0.772482645379327E+05    0.302559978109701E+05   -0.771892087076883E+05    0.302558288258576E+05
    0.115200000000000E+06    0.557562515563368E+02   -0.432809153614354E+05    0.306188911014228E+05   -0.436376420015876E+05    0.306188906660060E+05
    0.118800000000000E+06    0.557275718872289E+02   -0.774561007597734E+05    0.309491506613753E+05   -0.769108613694032E+05    0.309491510520734E+05
    0.122400000000000E+06    0.557064244135635E+02   -0.669838847078809E+05    0.312556985243846E+05   -0.660190924939834E+05    0.312543388535518E+05
    0.126000000000000E+06    0.556881954752101E+02   -0.601143656129865E+05    0.315444596092635E+05   -0.615070655282095E+05    0.315429599000936E+05
    0.129600000000000E+06    0.556792572252855E+02   -0.456252389074629E+05    0.318152418846345E+05   -0.464748781356589E+05    0.318152427490202E+05
    0.133200000000000E+06    0.556744418198802E+02   -0.392655000962839E+05    0.320638929898196E+05   -0.396699247339995E+05    0.320638938882469E+05
    0.136800000000000E+06    0.556691484014032E+02   -0.395104545271427E+05    0.322865268054288E+05   -0.399950292699284E+05    0.322864941314444E+05
    0.140400000000000E+06    0.556617028077953E+02   -0.431458207272203E+05    0.324826403733288E+05   -0.436001814726799E+05    0.324805484919615E+05
    0.144000000000000E+06    0.556749317818988E+02   -0.132809626861367E+05    0.326481436220447E+05   -0.136581776031150E+05    0.326481432039565E+05
    0.147600000000000E+06    0.556565856037713E+02   -0.595953920987037E+05    0.327868219256040E+05   -0.597831069760139E+05    0.327868214245678E+05
    0.151200000000000E+06    0.556423734521056E+02   -0.537868147420155E+05    0.329092401397172E+05   -0.538065676251814E+05    0.329092844854494E+05
    0.154800000000000E+06    0.556301325146307E+02   -0.516061705722291E+05    0.330253175825440E+05   -0.514364058370727E+05    0.330253666608513E+05
    0.158400000000000E+06    0.556182995474249E+02   -0.523443425758518E+05    0.331407911027191E+05   -0.520645898698797E+05    0.331408396820749E+05
    0.162000000000000E+06    0.556053372475547E+02   -0.547805165158943E+05    0.332584708205418E+05   -0.543872829722191E+05    0.332585163338025E+05
    0.165600000000000E+06    0.555938365229446E+02   -0.528434790285223E+05    0.333791056672108E+05   -0.526570552050142E+05    0.333791461870045E+05
    0.169200000000000E+06    0.555789386154008E+02   -0.581727585645603E+05    0.335032904943874E+05   -0.575750014296593E+05    0.335033277988924E+05
    0.172800000000000E+06    0.555592198851455E+02   -0.665718906797072E+05    0.336337416401416E+05   -0.664567522100887E+05    0.336337414598747E+05
    0.176400000000000E+06    0.555388539435577E+02   -0.671122679449210E+05    0.337736880431185E+05   -0.669901366631575E+05    0.337736880161966E+05
    0.180000000000000E+06    0.555161756464394E+02   -0.715597710779539E+05    0.339262616722141E+05   -0.714330948363596E+05    0.339262618165613E+05
    0.183600000000000E+06    0.554967126394575E+02   -0.656238706064924E+05    0.340921964031260E+05   -0.654256586104302E+05    0.340921983288492E+05
    0.187200000000000E+06    0.554795066078518E+02   -0.622428342732768E+05    0.342693243339574E+05   -0.621652692034974E+05    0.342693161745717E+05
    0.190800000000000E+06    0.554665405270310E+02   -0.553376288208884E+05    0.344527332753729E+05   -0.555636327433502E+05    0.344527179720797E+05
    0.194400000000000E+06    0.554553259054745E+02   -0.538518639719817E+05    0.346364668807761E+05   -0.540398488130710E+05    0.346364500301932E+05
    0.198000000000000E+06    0.554441122090659E+02   -0.542634235527917E+05    0.348158216237503E+05   -0.543139726495571E+05    0.348141615841726E+05
    0.201600000000000E+06    0.554335379582878E+02   -0.532392731708383E+05    0.349878969364778E+05   -0.531236344843920E+05    0.349861802869955E+05
    0.205200000000000E+06    0.554248887965673E+02   -0.494488424386908E+05    0.351510271586919E+05   -0.500917418099515E+05    0.351492440368542E+05
    0.208800000000000E+06    0.554282435406177E+02   -0.294104428645532E+05    0.353002106598055E+05   -0.301107129607707E+05    0.353002103726095E+05
    0.212400000000000E+06    0.554341757507930E+02   -0.255794240238617E+05    0.354286633697145E+05   -0.258142063329118E+05    0.354286631521083E+05
    0.216000000000000E+06    0.554512082296464E+02   -0.695012578024821E+04    0.355275397262287E+05   -0.758425357274404E+04    0.355275388003490E+05
    0.219600000000000E+06    0.554799100079576E+02    0.124689095375420E+05    0.355854984293175E+05    0.122081327494738E+05    0.355854982048482E+05
    0.223200000000000E+06    0.555225805487959E+02    0.360151288049548E+05    0.355890493577880E+05    0.356654788839849E+05    0.355890490594349E+05
    0.226800000000000E+06    0.555624400456453E+02    0.317652750767878E+05    0.355287168968788E+05    0.310797246728708E+05    0.355287138714854E+05
    0.230400000000000E+06    0.555948536767960E+02    0.192066838398947E+05    0.354050851548110E+05    0.188517382026090E+05    0.354050815190147E+05
    0.234000000000000E+06    0.555991778630555E+02   -0.284120639873288E+05    0.352358020630472E+05   -0.278445658878511E+05    0.352357984050124E+05
    0.237600000000000E+06    0.555900857991884E+02   -0.509088088651139E+05    0.350506620173086E+05   -0.503592056800809E+05    0.350506623686230E+05
    0.241200000000000E+06    0.555692516048934E+02   -0.700738512427809E+05    0.348814522747240E+05   -0.697990343738808E+05    0.348814525155578E+05
    0.244800000000000E+06    0.555505925329955E+02   -0.663223037487228E+05    0.347513042097254E+05   -0.655474300128932E+05    0.347513006391165E+05
    0.248400000000000E+06    0.555380554114253E+02   -0.554028072279401E+05    0.346691229627897E+05   -0.550342761736235E+05    0.346692887831579E+05
    0.252000000000000E+06    0.555321378274655E+02   -0.433267855933285E+05    0.346306590657870E+05   -0.441971790240084E+05    0.346307855978737E+05
    0.255600000000000E+06    0.555204582959285E+02   -0.540438321424684E+05    0.346272742834317E+05   -0.537901200263611E+05    0.346272725301134E+05
    0.259200000000000E+06    0.555020417354281E+02   -0.656896727542431E+05    0.346540043676410E+05   -0.654391840609459E+05    0.346540031705488E+05
    0.262800000000000E+06    0.554813468116930E+02   -0.697190762148258E+05    0.347093461719913E+05   -0.693945045732690E+05    0.347093454701255E+05
    0.266400000000000E+06    0.554614793733712E+02   -0.682138750317390E+05    0.347924816084582E+05   -0.678763499732981E+05    0.347924812990010E+05
    0.270000000000000E+06    0.554440646952880E+02   -0.635399236796863E+05    0.349005775977304E+05   -0.631612057647462E+05    0.349005885548790E+05
    0.273600000000000E+06    0.554301183987312E+02   -0.569490789529058E+05    0.350281937371961E+05   -0.576723129783380E+05    0.350271849097738E+05
    0.277200000000000E+06    0.554188999732131E+02   -0.508670095097245E+05    0.351678942579360E+05   -0.515415676155098E+05    0.351678791431709E+05
    0.280800000000000E+06    0.554075643011326E+02   -0.510901607794562E+05    0.353131332284278E+05   -0.525548010998288E+05    0.353122030028201E+05
    0.284400000000000E+06    0.553951611330955E+02   -0.534456652139306E+05    0.354596883074049E+05   -0.534038380236852E+05    0.354596695371347E+05
    0.288000000000000E+06    0.553809121784592E+02   -0.587206608389237E+05    0.356062145032256E+05   -0.580171841081998E+05    0.356061976800354E+05
    0.291600000000000E+06    0.553665861824542E+02   -0.606686571547181E+05    0.357531340378511E+05   -0.599780750568840E+05    0.357531181566168E+05
    0.295200000000000E+06    0.553633804111950E+02   -0.415249763678542E+05    0.358975534979582E+05   -0.424884058154158E+05    0.358975534820068E+05
    0.298800000000000E+06    0.553733001761952E+02   -0.198016757923367E+05    0.360297500864253E+05   -0.200602868537283E+05    0.360297498828586E+05
    0.302400000000000E+06    0.553996613592354E+02    0.864178910218864E+04    0.361335628447591E+05    0.770218613858839E+04    0.361335622980010E+05
    0.306000000000000E+06    0.554328640895139E+02    0.205819508908590E+05    0.361911996003268E+05    0.198248020774723E+05    0.361911991302477E+05
    0.309600000000000E+06    0.554676090986780E+02    0.231460385122814E+05    0.361903395183995E+05    0.227361297489108E+05    0.361903392173466E+05
    0.313200000000000E+06    0.554919966101998E+02    0.678162389499737E+04    0.361302452584396E+05    0.618195114886017E+04    0.361303633244775E+05
    0.316800000000000E+06    0.555037556223894E+02   -0.148057419704062E+05    0.360229626481506E+05   -0.143303766593948E+05    0.360229603298603E+05
    0.320400000000000E+06    0.554921824242915E+02   -0.542676601460776E+05    0.358937173751837E+05   -0.541253462957468E+05    0.358937175494601E+05
    0.324000000000000E+06    0.554660992316210E+02   -0.787542283375692E+05    0.357740371642267E+05   -0.786157423079913E+05    0.357740373464909E+05
    0.327600000000000E+06    0.554337461854215E+02   -0.895253929314845E+05    0.356924510014575E+05   -0.892473292079902E+05    0.356924512709582E+05
    0.331200000000000E+06    0.554094042158789E+02   -0.753335231835179E+05    0.356642699547237E+05   -0.750442190509308E+05    0.356642678144028E+05
    0.334800000000000E+06    0.553969977548757E+02   -0.536385155128023E+05    0.356877496118357E+05   -0.538529979635141E+05    0.356877476548576E+05
    0.338400000000000E+06    0.553935776081829E+02   -0.376666067393730E+05    0.357482980974224E+05   -0.380703010125284E+05    0.357482965504884E+05
    0.342000000000000E+06    0.553838656056243E+02   -0.492292798732414E+05    0.358304968499083E+05   -0.491976214233103E+05    0.358305199673419E+05
    0.345600000000000E+06    0.553720447202977E+02   -0.476019989146855E+05    0.359248902815957E+05   -0.484122576661041E+05    0.359249029040539E+05
    0.349200000000000E+06    0.553547721087101E+02   -0.575016213431720E+05    0.360286017171091E+05   -0.594945760387748E+05    0.360286094187063E+05
    0.352800000000000E+06    0.553358261700298E+02   -0.587370066581480E+05    0.361432002126651E+05   -0.608113099276185E+05    0.361432017965618E+05
    0.356400000000000E+06    0.553172713212144E+02   -0.600454598833513E+05    0.362706212267925E+05   -0.608202881131847E+05    0.362706150045668E+05
    0.360000000000000E+06    0.553039358623900E+02   -0.487079934090787E+05    0.364097130525861E+05   -0.470019149713218E+05    0.364096990074662E+05
    0.363600000000000E+06    0.552978292979561E+02   -0.352661830698696E+05    0.365545845758997E+05   -0.343621257106829E+05    0.365545844525754E+05
    0.367200000000000E+06    0.553019190477078E+02   -0.162746280040595E+05    0.366945907476697E+05   -0.159001835779689E+05    0.366945900949898E+05
    0.370800000000000E+06    0.553115119151402E+02   -0.346281025593374E+04    0.368172113826425E+05   -0.306486286334860E+04    0.368172105708040E+05
    0.374400000000000E+06    0.553200901758923E+02   -0.781017633106810E+04    0.369131802182393E+05   -0.771136888646373E+04    0.369131797300304E+05
    0.378000000000000E+06    0.553385689855251E+02    0.137896727978423E+05    0.369756333021765E+05    0.137598138052791E+05    0.369756323847206E+05
    0.381600000000000E+06    0.553631639900041E+02    0.223114684592431E+05    0.369979584277478E+05    0.219508809378184E+05    0.369979577470346E+05
    0.385200000000000E+06    0.553846763454631E+02    0.272962344441966E+04    0.369773986311644E+05    0.268540770064693E+04    0.369773968993458E+05
    0.388800000000000E+06    0.554145479042246E+02    0.119451661970442E+05    0.369129244398278E+05    0.117426435832836E+05    0.369129218842356E+05
    0.392400000000000E+06    0.554498785521110E+02    0.140054384831822E+05    0.368030984761255E+05    0.123898093926215E+05    0.368030951481632E+05
    0.396000000000000E+06    0.554756747315803E+02   -0.163022940209948E+04    0.366507880458015E+05   -0.232922845160115E+04    0.366507846479464E+05
    0.399600000000000E+06    0.554957065479043E+02   -0.902159416790055E+04    0.364652075019502E+05   -0.101599847389672E+05    0.364653956978558E+05
    0.403200000000000E+06    0.555112679558220E+02   -0.141521195277368E+05    0.362590252558982E+05   -0.134444741522794E+05    0.362560914056234E+05
    0.406800000000000E+06    0.555232752103076E+02   -0.185322373553669E+05    0.360451668792504E+05   -0.180834358550459E+05    0.360453712683933E+05
    0.410400000000000E+06    0.555336934064389E+02   -0.204578828018763E+05    0.358342344093544E+05   -0.195698630515120E+05    0.358313813427681E+05
    0.414000000000000E+06    0.555502103325839E+02   -0.973912895659992E+04    0.356305947291793E+05   -0.102987404481040E+05    0.356305905411884E+05
    0.417600000000000E+06    0.555617573526131E+02   -0.178047374870023E+05    0.354357377188694E+05   -0.169557427676528E+05    0.354331273126570E+05
    0.421200000000000E+06    0.555740635770591E+02   -0.161154432768164E+05    0.352498219073878E+05   -0.165530587862391E+05    0.352499919888170E+05
    0.424800000000000E+06    0.555865101018585E+02   -0.145388302147547E+05    0.350723351302057E+05   -0.149288217892278E+05    0.350724957675261E+05
    0.428400000000000E+06    0.555981937991336E+02   -0.152608263085323E+05    0.349024873021652E+05   -0.154468408177497E+05    0.349026396180758E+05
    0.432000000000000E+06    0.556127855066978E+02   -0.997595680366592E+04    0.347385697579030E+05   -0.109489814706345E+05    0.347387135794856E+05
    0.435600000000000E+06    0.556254425512040E+02   -0.136840395671091E+05    0.345787077245343E+05   -0.139807820350650E+05    0.345788465794709E+05
    0.439200000000000E+06    0.556346893305347E+02   -0.198112076016134E+05    0.344230890105355E+05   -0.195464174796816E+05    0.344232234042720E+05
    0.442800000000000E+06    0.556427280148954E+02   -0.221020001080813E+05    0.342733810055187E+05   -0.217742620579162E+05    0.342713893052018E+05
    0.446400000000000E+06    0.556551282170397E+02   -0.148092321213537E+05    0.341295569857044E+05   -0.156706246535551E+05    0.341295541335313E+05
    0.450000000000000E+06    0.556626072527086E+02   -0.234191572783665E+05    0.339916805431063E+05   -0.226611039145686E+05    0.339917979153020E+05
    0.453600000000000E+06    0.556767124343867E+02   -0.111799126274496E+05    0.338583139211274E+05   -0.118331165219459E+05    0.338583135860266E+05
    0.457200000000000E+06    0.556821249023402E+02   -0.248661656758011E+05    0.337291094091862E+05   -0.245430852825753E+05    0.337291077493369E+05
    0.460800000000000E+06    0.556990191968446E+02   -0.640992694596343E+04    0.336021819036413E+05   -0.719760475349601E+04    0.336021814324598E+05
    0.464400000000000E+06    0.557275157541474E+02    0.117459387874800E+05    0.334693513038802E+05    0.109039397199356E+05    0.334693508878320E+05
    0.468000000000000E+06    0.557502585733273E+02    0.324293477603642E+04    0.333228606446447E+05    0.217009042511972E+04    0.333228580492946E+05
